Time,Voltage Magnitude,Voltage Angle,Current Magnitude,Current Angle,Frequency,ROCOF
0,8.0044,-11.524,0.7061,-79.607,60.006,0.0093
0.033,8.0045,-11.524,0.7061,-79.607,60.007,0.0088
0.066,8.0037,-11.524,0.706,-79.606,60.007,0.009
0.1,8.0023,-11.524,0.7059,-79.603,60.007,0.0093
0.133,8.0003,-11.524,0.7058,-79.6,60.008,0.0096
0.166,7.9982,-11.525,0.7056,-79.596,60.008,0.0104
0.2,7.996,-11.525,0.7054,-79.592,60.008,0.0112
0.233,7.9942,-11.526,0.7053,-79.589,60.009,0.0116
0.266,7.9928,-11.527,0.7052,-79.587,60.009,0.0124
0.3,7.9921,-11.528,0.7051,-79.586,60.01,0.0129
0.333,7.992,-11.528,0.7051,-79.586,60.01,0.0128
0.366,7.9926,-11.529,0.7052,-79.587,60.01,0.0129
0.4,7.9937,-11.529,0.7053,-79.59,60.011,0.0127
0.433,7.9951,-11.529,0.7054,-79.593,60.011,0.0119
0.466,7.9967,-11.529,0.7055,-79.596,60.012,0.0115
0.5,7.9983,-11.529,0.7056,-79.599,60.012,0.0107
0.533,7.9997,-11.528,0.7057,-79.601,60.012,0.0098
0.566,8.0007,-11.528,0.7058,-79.603,60.013,0.0094
0.6,8.0013,-11.527,0.7058,-79.604,60.013,0.0088
0.633,8.0014,-11.527,0.7058,-79.604,60.013,0.0083
0.666,8.001,-11.526,0.7058,-79.603,60.014,0.0084
0.7,8.0002,-11.526,0.7057,-79.602,60.014,0.0084
0.733,7.9991,-11.526,0.7057,-79.6,60.014,0.0084
0.766,7.9979,-11.526,0.7056,-79.597,60.014,0.0089
0.8,7.9967,-11.527,0.7055,-79.595,60.015,0.0094
0.833,7.9957,-11.527,0.7054,-79.594,60.015,0.0096
0.866,7.9949,-11.528,0.7053,-79.593,60.015,0.0101
0.9,7.9945,-11.528,0.7053,-79.592,60.016,0.0104
0.933,7.9944,-11.529,0.7053,-79.592,60.016,0.0103
0.966,7.9947,-11.529,0.7053,-79.593,60.016,0.0105
1,7.9953,-11.529,0.7054,-79.594,60.017,0.0104
1.033,7.9961,-11.529,0.7054,-79.596,60.017,0.0098
1.066,7.997,-11.529,0.7055,-79.598,60.017,0.0096
1.1,7.9979,-11.529,0.7056,-79.599,60.018,0.0092
1.133,7.9986,-11.529,0.7056,-79.601,60.018,0.0085
1.166,7.9992,-11.529,0.7057,-79.602,60.018,0.0082
1.2,7.9995,-11.528,0.7057,-79.602,60.019,0.0079
1.233,7.9996,-11.528,0.7057,-79.603,60.019,0.0075
1.266,7.9994,-11.528,0.7057,-79.602,60.019,0.0074
1.3,7.9989,-11.528,0.7056,-79.601,60.019,0.0074
1.333,7.9983,-11.528,0.7056,-79.6,60.02,0.0073
1.366,7.9977,-11.528,0.7056,-79.599,60.02,0.0076
1.4,7.997,-11.528,0.7055,-79.598,60.02,0.0078
1.433,7.9964,-11.528,0.7055,-79.597,60.02,0.0078
1.466,7.996,-11.528,0.7054,-79.596,60.02,0.0081
1.5,7.9958,-11.529,0.7054,-79.596,60.021,0.0082
1.533,7.9957,-11.529,0.7054,-79.596,60.021,0.0081
1.566,7.9959,-11.529,0.7054,-79.596,60.021,0.0082
1.6,7.9962,-11.529,0.7054,-79.597,60.022,0.0081
1.633,7.9966,-11.53,0.7055,-79.598,60.022,0.0078
1.666,7.9971,-11.529,0.7055,-79.599,60.022,0.0076
1.7,7.9976,-11.53,0.7055,-79.6,60.022,0.0074
1.733,7.998,-11.529,0.7056,-79.601,60.023,0.0069
1.766,7.9983,-11.529,0.7056,-79.601,60.023,0.0068
1.8,7.9985,-11.529,0.7056,-79.602,60.023,0.0065
1.833,7.9985,-11.529,0.7056,-79.602,60.023,0.0061
1.866,7.9984,-11.529,0.7056,-79.602,60.023,0.0062
1.9,7.9981,-11.529,0.7056,-79.601,60.024,0.0061
1.933,7.9978,-11.529,0.7056,-79.601,60.024,0.0059
1.966,7.9974,-11.529,0.7055,-79.6,60.024,0.0061
2,7.9971,-11.529,0.7055,-79.599,60.024,0.0061
2.033,7.9968,-11.529,0.7055,-79.599,60.025,0.006
2.066,7.9965,-11.529,0.7055,-79.598,60.025,0.0062
2.1,7.9964,-11.529,0.7055,-79.598,60.025,0.0062
2.133,7.9963,-11.529,0.7055,-79.598,60.025,0.006
2.166,7.9964,-11.529,0.7055,-79.598,60.025,0.0061
2.2,7.9966,-11.529,0.7055,-79.599,60.026,0.0061
2.233,7.9968,-11.53,0.7055,-79.599,60.026,0.0057
2.266,7.997,-11.53,0.7055,-79.6,60.026,0.0057
2.3,7.9973,-11.53,0.7055,-79.6,60.026,0.0055
2.333,7.9975,-11.529,0.7055,-79.601,60.026,0.0051
2.366,7.9977,-11.529,0.7056,-79.601,60.026,0.0051
2.4,7.9978,-11.529,0.7056,-79.601,60.027,0.0049
2.433,7.9978,-11.529,0.7056,-79.601,60.027,0.0046
2.466,7.9978,-11.529,0.7056,-79.601,60.027,0.0046
2.5,7.9976,-11.529,0.7056,-79.601,60.027,0.0045
2.533,7.9974,-11.529,0.7055,-79.601,60.027,0.0043
2.566,7.9972,-11.529,0.7055,-79.6,60.027,0.0044
2.6,7.997,-11.529,0.7055,-79.6,60.028,0.0044
2.633,7.9968,-11.529,0.7055,-79.6,60.028,0.0042
2.666,7.9967,-11.529,0.7055,-79.6,60.028,0.0043
2.7,7.9966,-11.529,0.7055,-79.599,60.028,0.0043
2.733,7.9966,-11.529,0.7055,-79.599,60.028,0.0041
2.766,7.9966,-11.529,0.7055,-79.599,60.028,0.0041
2.8,7.9967,-11.53,0.7055,-79.6,60.028,0.0041
2.833,7.9968,-11.53,0.7055,-79.6,60.029,0.0038
2.866,7.997,-11.53,0.7055,-79.6,60.029,0.0038
2.9,7.9971,-11.53,0.7055,-79.601,60.029,0.0037
2.933,7.9972,-11.529,0.7055,-79.601,60.029,0.0034
2.966,7.9973,-11.529,0.7055,-79.601,60.029,0.0033
3,7.9974,-11.529,0.7055,-79.601,60.029,0.0032
3.033,7.9974,-11.529,0.7055,-79.601,60.029,0.0029
3.066,7.9974,-11.529,0.7055,-79.601,60.029,0.003
3.1,7.9973,-11.529,0.7055,-79.601,60.029,0.0028
3.133,7.9972,-11.529,0.7055,-79.601,60.029,0.0026
3.166,7.9971,-11.529,0.7055,-79.601,60.029,0.0027
3.2,7.9969,-11.529,0.7055,-79.6,60.03,0.0027
3.233,7.9968,-11.529,0.7055,-79.6,60.03,0.0025
3.266,7.9968,-11.529,0.7055,-79.6,60.03,0.0025
3.3,7.9967,-11.529,0.7055,-79.6,60.03,0.0025
3.333,7.9967,-11.529,0.7055,-79.6,60.03,0.0023
3.366,7.9967,-11.529,0.7055,-79.6,60.03,0.0023
3.4,7.9967,-11.529,0.7055,-79.6,60.03,0.0023
3.433,7.9968,-11.529,0.7055,-79.6,60.03,0.002
3.466,7.9969,-11.529,0.7055,-79.6,60.03,0.002
3.5,7.9969,-11.529,0.7055,-79.601,60.03,0.0019
3.533,7.997,-11.529,0.7055,-79.601,60.03,0.0016
3.566,7.9971,-11.529,0.7055,-79.601,60.03,0.0016
3.6,7.9971,-11.529,0.7055,-79.601,60.031,0.0015
3.633,7.9971,-11.529,0.7055,-79.601,60.031,0.0012
3.666,7.9971,-11.529,0.7055,-79.601,60.031,0.0013
3.7,7.997,-11.529,0.7055,-79.601,60.031,0.0012
3.733,7.997,-11.529,0.7055,-79.6,60.031,0.001
3.766,7.9969,-11.529,0.7055,-79.6,60.031,0.001
3.8,7.9968,-11.529,0.7055,-79.6,60.031,0.001
3.833,7.9968,-11.529,0.7055,-79.6,60.031,0.0008
3.866,7.9967,-11.529,0.7055,-79.6,60.031,0.0008
3.9,7.9967,-11.529,0.7055,-79.6,60.031,0.0007
3.933,7.9967,-11.529,0.7055,-79.6,60.031,0.0005
3.966,7.9967,-11.529,0.7055,-79.6,60.031,0.0006
4,7.9967,-11.529,0.7055,-79.6,60.031,0.0005
4.033,7.9967,-11.529,0.7055,-79.6,60.031,0.0003
4.066,7.9968,-11.529,0.7055,-79.6,60.031,0.0003
4.1,7.9968,-11.529,0.7055,-79.6,60.031,0.0002
4.133,7.9968,-11.529,0.7055,-79.6,60.031,-0.0001
4.166,7.9969,-11.529,0.7055,-79.6,60.031,0
4.2,7.9969,-11.529,0.7055,-79.6,60.031,-0.0001
4.233,7.9969,-11.529,0.7055,-79.6,60.031,-0.0004
4.266,7.9969,-11.529,0.7055,-79.6,60.031,-0.0003
4.3,7.9968,-11.529,0.7055,-79.6,60.031,-0.0004
4.333,7.9968,-11.529,0.7055,-79.6,60.031,-0.0006
4.366,7.9968,-11.529,0.7055,-79.6,60.031,-0.0006
4.4,7.9967,-11.529,0.7055,-79.6,60.031,-0.0006
4.433,7.9967,-11.529,0.7055,-79.6,60.031,-0.0008
4.466,7.9966,-11.529,0.7055,-79.6,60.031,-0.0008
4.5,7.9966,-11.529,0.7055,-79.6,60.031,-0.0008
4.533,7.9966,-11.529,0.7055,-79.6,60.031,-0.001
4.566,7.9966,-11.529,0.7055,-79.6,60.031,-0.001
4.6,7.9966,-11.529,0.7055,-79.6,60.031,-0.0011
4.633,7.9966,-11.529,0.7055,-79.6,60.031,-0.0013
4.666,7.9967,-11.529,0.7055,-79.6,60.031,-0.0013
4.7,7.9967,-11.529,0.7055,-79.6,60.031,-0.0013
4.733,7.9967,-11.529,0.7055,-79.6,60.03,-0.0016
4.766,7.9967,-11.529,0.7055,-79.6,60.03,-0.0015
4.8,7.9967,-11.529,0.7055,-79.6,60.03,-0.0016
4.833,7.9967,-11.529,0.7055,-79.6,60.03,-0.0018
4.866,7.9967,-11.529,0.7055,-79.6,60.03,-0.0018
4.9,7.9967,-11.529,0.7055,-79.6,60.03,-0.0018
4.933,7.9966,-11.528,0.7055,-79.599,60.03,-0.0021
4.966,7.9966,-11.528,0.7055,-79.599,60.03,-0.002
5,7.9966,-11.528,0.7055,-79.599,60.03,-0.0021
5.033,7.9966,-11.528,0.7055,-79.599,60.03,-0.0023
5.066,7.9966,-11.528,0.7055,-79.599,60.03,-0.0022
5.1,7.9965,-11.528,0.7055,-79.599,60.03,-0.0023
5.133,7.9965,-11.528,0.7055,-79.599,60.03,-0.0025
5.166,7.9965,-11.528,0.7055,-79.599,60.03,-0.0024
5.2,7.9965,-11.528,0.7055,-79.599,60.029,-0.0025
5.233,7.9965,-11.528,0.7055,-79.599,60.029,-0.0027
5.266,7.9965,-11.528,0.7055,-79.599,60.029,-0.0026
5.3,7.9966,-11.528,0.7055,-79.599,60.029,-0.0027
5.333,7.9966,-11.528,0.7055,-79.599,60.029,-0.0029
5.366,7.9966,-11.528,0.7055,-79.599,60.029,-0.0029
5.4,7.9966,-11.528,0.7055,-79.599,60.029,-0.0029
5.433,7.9966,-11.528,0.7055,-79.599,60.029,-0.0031
5.466,7.9965,-11.528,0.7055,-79.599,60.029,-0.0031
5.5,7.9965,-11.528,0.7055,-79.599,60.029,-0.0031
5.533,7.9965,-11.528,0.7055,-79.599,60.029,-0.0033
5.566,7.9965,-11.528,0.7055,-79.599,60.028,-0.0033
5.6,7.9965,-11.528,0.7055,-79.598,60.028,-0.0033
5.633,7.9965,-11.528,0.7055,-79.598,60.028,-0.0035
5.666,7.9965,-11.528,0.7055,-79.598,60.028,-0.0034
5.7,7.9965,-11.528,0.7055,-79.598,60.028,-0.0035
5.733,7.9964,-11.528,0.7055,-79.598,60.028,-0.0037
5.766,7.9964,-11.528,0.7055,-79.598,60.028,-0.0036
5.8,7.9964,-11.528,0.7055,-79.598,60.028,-0.0036
5.833,7.9964,-11.527,0.7055,-79.598,60.028,-0.0039
5.866,7.9964,-11.527,0.7055,-79.598,60.027,-0.0038
5.9,7.9964,-11.528,0.7055,-79.598,60.027,-0.0038
5.933,7.9964,-11.527,0.7055,-79.598,60.027,-0.004
5.966,7.9964,-11.527,0.7055,-79.598,60.027,-0.004
6,7.9964,-11.527,0.7055,-79.598,60.027,-0.004
6.033,7.9964,-11.527,0.7055,-79.598,60.027,-0.0042
6.066,7.9964,-11.527,0.7055,-79.598,60.026,-0.0041
6.1,7.9964,-11.527,0.7055,-79.598,60.026,-0.0042
6.133,7.9964,-11.527,0.7055,-79.598,60.026,-0.0044
6.166,7.9964,-11.527,0.7055,-79.597,60.026,-0.0043
6.2,7.9964,-11.527,0.7055,-79.597,60.026,-0.0043
6.233,7.9964,-11.527,0.7055,-79.597,60.026,-0.0045
6.266,7.9964,-11.527,0.7055,-79.597,60.026,-0.0044
6.3,7.9964,-11.527,0.7055,-79.597,60.026,-0.0044
6.333,7.9963,-11.527,0.7055,-79.597,60.025,-0.0047
6.366,7.9963,-11.527,0.7055,-79.597,60.025,-0.0046
6.4,7.9963,-11.527,0.7055,-79.597,60.025,-0.0046
6.433,7.9963,-11.527,0.7055,-79.597,60.025,-0.0048
6.466,7.9963,-11.527,0.7055,-79.597,60.025,-0.0047
6.5,7.9963,-11.527,0.7055,-79.597,60.025,-0.0047
6.533,7.9963,-11.527,0.7055,-79.597,60.024,-0.0049
6.566,7.9963,-11.527,0.7055,-79.597,60.024,-0.0049
6.6,7.9963,-11.527,0.7055,-79.597,60.024,-0.0049
6.633,7.9963,-11.527,0.7055,-79.597,60.024,-0.0051
6.666,7.9963,-11.527,0.7055,-79.597,60.024,-0.005
6.7,7.9963,-11.527,0.7055,-79.596,60.024,-0.005
6.733,7.9963,-11.526,0.7055,-79.596,60.023,-0.0052
6.766,7.9963,-11.526,0.7055,-79.596,60.023,-0.0051
6.8,7.9963,-11.526,0.7055,-79.596,60.023,-0.0051
6.833,7.9963,-11.526,0.7055,-79.596,60.023,-0.0053
6.866,7.9963,-11.526,0.7055,-79.596,60.023,-0.0052
6.9,7.9963,-11.526,0.7055,-79.596,60.023,-0.0052
6.933,7.9962,-11.526,0.7055,-79.596,60.022,-0.0054
6.966,7.9962,-11.526,0.7055,-79.596,60.022,-0.0053
7,7.9962,-11.526,0.7055,-79.596,60.022,-0.0053
7.033,7.9962,-11.526,0.7055,-79.596,60.022,-0.0055
7.066,7.9962,-11.526,0.7055,-79.596,60.022,-0.0054
7.1,7.9962,-11.526,0.7055,-79.596,60.022,-0.0054
7.133,7.9962,-11.526,0.7055,-79.596,60.021,-0.0056
7.166,7.9962,-11.526,0.7055,-79.595,60.021,-0.0055
7.2,7.9962,-11.526,0.7055,-79.595,60.021,-0.0055
7.233,7.9962,-11.526,0.7055,-79.595,60.021,-0.0057
7.266,7.9962,-11.526,0.7055,-79.595,60.021,-0.0056
7.3,7.9962,-11.526,0.7055,-79.595,60.02,-0.0056
7.333,7.9962,-11.526,0.7055,-79.595,60.02,-0.0058
7.366,7.9962,-11.525,0.7055,-79.595,60.02,-0.0057
7.4,7.9962,-11.526,0.7055,-79.595,60.02,-0.0056
7.433,7.9962,-11.526,0.7055,-79.595,60.02,-0.0059
7.466,7.9962,-11.525,0.7055,-79.595,60.019,-0.0057
7.5,7.9962,-11.525,0.7055,-79.595,60.019,-0.0057
7.533,7.9962,-11.525,0.7055,-79.595,60.019,-0.0059
7.566,7.9961,-11.525,0.7055,-79.594,60.019,-0.0058
7.6,7.9961,-11.525,0.7055,-79.594,60.019,-0.0058
7.633,7.9961,-11.525,0.7055,-79.594,60.019,-0.006
7.666,7.9961,-11.525,0.7055,-79.594,60.018,-0.0058
7.7,7.9961,-11.525,0.7055,-79.594,60.018,-0.0058
7.733,7.9961,-11.525,0.7055,-79.594,60.018,-0.006
7.766,7.9961,-11.525,0.7055,-79.594,60.018,-0.0059
7.8,7.9961,-11.525,0.7055,-79.594,60.017,-0.0059
7.833,7.9961,-11.525,0.7055,-79.594,60.017,-0.0061
7.866,7.9961,-11.525,0.7055,-79.594,60.017,-0.006
7.9,7.9961,-11.525,0.7055,-79.594,60.017,-0.0059
7.933,7.9961,-11.525,0.7055,-79.594,60.017,-0.0062
7.966,7.9961,-11.525,0.7055,-79.593,60.017,-0.006
8,7.9961,-11.525,0.7055,-79.594,60.016,-0.006
8.033,7.9961,-11.525,0.7055,-79.593,60.016,-0.0062
8.066,7.9961,-11.525,0.7055,-79.593,60.016,-0.006
8.1,7.9961,-11.524,0.7055,-79.593,60.016,-0.006
8.133,7.9961,-11.524,0.7055,-79.593,60.016,-0.0062
8.166,7.9961,-11.524,0.7055,-79.593,60.015,-0.006
8.2,7.9961,-11.524,0.7055,-79.593,60.015,-0.006
8.233,7.996,-11.524,0.7055,-79.593,60.015,-0.0062
8.266,7.996,-11.524,0.7055,-79.593,60.015,-0.006
8.3,7.996,-11.524,0.7055,-79.593,60.014,-0.006
8.333,7.996,-11.524,0.7055,-79.593,60.014,-0.0062
8.366,7.996,-11.524,0.7055,-79.593,60.014,-0.0061
8.4,7.996,-11.524,0.7055,-79.593,60.014,-0.0061
8.433,7.996,-11.524,0.7055,-79.593,60.014,-0.0063
8.466,7.996,-11.524,0.7055,-79.592,60.013,-0.0061
8.5,7.996,-11.524,0.7055,-79.592,60.013,-0.0061
8.533,7.996,-11.524,0.7055,-79.592,60.013,-0.0063
8.566,7.996,-11.524,0.7055,-79.592,60.013,-0.0061
8.6,7.996,-11.524,0.7055,-79.592,60.013,-0.0061
8.633,7.996,-11.524,0.7055,-79.592,60.012,-0.0063
8.666,7.996,-11.524,0.7055,-79.592,60.012,-0.0061
8.7,7.996,-11.524,0.7055,-79.592,60.012,-0.006
8.733,7.996,-11.524,0.7055,-79.592,60.012,-0.0063
8.766,7.996,-11.524,0.7055,-79.592,60.012,-0.0061
8.8,7.996,-11.523,0.7055,-79.592,60.011,-0.006
8.833,7.996,-11.523,0.7055,-79.592,60.011,-0.0062
8.866,7.9959,-11.523,0.7055,-79.591,60.011,-0.006
8.9,7.9959,-11.523,0.7055,-79.591,60.011,-0.006
8.933,7.9959,-11.523,0.7055,-79.591,60.011,-0.0062
8.966,7.9959,-11.523,0.7055,-79.591,60.01,-0.006
9,7.9959,-11.523,0.7055,-79.591,60.01,-0.006
9.033,7.9959,-11.523,0.7055,-79.591,60.01,-0.0062
9.066,7.9959,-11.523,0.7055,-79.591,60.01,-0.006
9.1,7.9959,-11.523,0.7055,-79.591,60.01,-0.0059
9.133,7.9959,-11.523,0.7055,-79.591,60.009,-0.0062
9.166,7.9959,-11.523,0.7055,-79.591,60.009,-0.006
9.2,7.9959,-11.523,0.7055,-79.591,60.009,-0.006
9.233,7.9959,-11.523,0.7055,-79.591,60.009,-0.0062
9.266,7.9959,-11.523,0.7055,-79.591,60.009,-0.006
9.3,7.9959,-11.523,0.7055,-79.59,60.008,-0.0059
9.333,7.9959,-11.523,0.7055,-79.59,60.008,-0.0061
9.366,7.9959,-11.523,0.7055,-79.59,60.008,-0.0059
9.4,7.9959,-11.523,0.7055,-79.59,60.008,-0.0059
9.433,7.9959,-11.523,0.7055,-79.59,60.008,-0.0061
9.466,7.9959,-11.523,0.7055,-79.59,60.007,-0.0058
9.5,7.9959,-11.523,0.7055,-79.59,60.007,-0.0058
9.533,7.9959,-11.523,0.7055,-79.59,60.007,-0.006
9.566,7.9959,-11.522,0.7055,-79.59,60.007,-0.0058
9.6,7.9959,-11.522,0.7055,-79.59,60.007,-0.0058
9.633,7.9958,-11.522,0.7055,-79.59,60.006,-0.006
9.666,7.9958,-11.522,0.7055,-79.59,60.006,-0.0058
9.7,7.9958,-11.522,0.7055,-79.59,60.006,-0.0057
9.733,7.9958,-11.522,0.7055,-79.59,60.006,-0.0059
9.766,7.9958,-11.522,0.7055,-79.59,60.006,-0.0057
9.8,7.9958,-11.522,0.7055,-79.589,60.005,-0.0056
9.833,7.9958,-11.522,0.7055,-79.589,60.005,-0.0059
9.866,7.9958,-11.522,0.7055,-79.589,60.005,-0.0056
9.9,7.9958,-11.522,0.7055,-79.589,60.005,-0.0056
9.933,7.9958,-11.522,0.7055,-79.589,60.005,-0.0058
9.966,7.9958,-11.522,0.7055,-79.589,60.005,-0.0056
10,7.9958,-11.522,0.7055,-79.589,60.004,-0.0055
10.033,7.9958,-11.522,0.7055,-79.589,60.004,-0.0057
10.066,7.9958,-11.522,0.7055,-79.589,60.004,-0.0055
10.1,7.9958,-11.522,0.7055,-79.589,60.004,-0.0054
10.133,7.9958,-11.522,0.7055,-79.589,60.004,-0.0057
10.166,7.9958,-11.522,0.7055,-79.589,60.003,-0.0054
10.2,7.9958,-11.522,0.7055,-79.589,60.003,-0.0053
10.233,7.9958,-11.522,0.7055,-79.589,60.003,-0.0056
10.266,7.9958,-11.522,0.7055,-79.588,60.003,-0.0053
10.3,7.9958,-11.522,0.7055,-79.588,60.003,-0.0053
10.333,7.9958,-11.522,0.7055,-79.588,60.002,-0.0055
10.366,7.9958,-11.521,0.7055,-79.588,60.002,-0.0052
10.4,7.9958,-11.522,0.7055,-79.588,60.002,-0.0052
10.433,7.9958,-11.521,0.7055,-79.588,60.002,-0.0054
10.466,7.9958,-11.521,0.7055,-79.588,60.002,-0.0052
10.5,7.9958,-11.521,0.7055,-79.588,60.002,-0.0051
10.533,7.9957,-11.521,0.7055,-79.588,60.001,-0.0053
10.566,7.9957,-11.521,0.7055,-79.588,60.001,-0.005
10.6,7.9957,-11.521,0.7055,-79.588,60.001,-0.005
10.633,7.9957,-11.521,0.7055,-79.588,60.001,-0.0052
10.666,7.9957,-11.521,0.7055,-79.588,60.001,-0.005
10.7,7.9957,-11.521,0.7055,-79.588,60.001,-0.0049
10.733,7.9957,-11.521,0.7055,-79.588,60,-0.0051
10.766,7.9957,-11.521,0.7055,-79.588,60,-0.0049
10.8,7.9957,-11.521,0.7055,-79.587,60,-0.0048
10.833,7.9957,-11.521,0.7055,-79.587,60,-0.005
10.866,7.9957,-11.521,0.7055,-79.587,60,-0.0047
10.9,7.9957,-11.521,0.7055,-79.587,60,-0.0047
10.933,7.9957,-11.521,0.7055,-79.587,59.999,-0.0049
10.966,7.9957,-11.521,0.7055,-79.587,59.999,-0.0046
11,7.9957,-11.521,0.7055,-79.587,59.999,-0.0046
11.033,7.9957,-11.521,0.7055,-79.587,59.999,-0.0048
11.066,7.9957,-11.521,0.7055,-79.587,59.999,-0.0045
11.1,7.9957,-11.521,0.7055,-79.587,59.999,-0.0045
11.133,7.9957,-11.521,0.7055,-79.587,59.998,-0.0047
11.166,7.9957,-11.521,0.7055,-79.587,59.998,-0.0044
11.2,7.9957,-11.521,0.7055,-79.587,59.998,-0.0044
11.233,7.9957,-11.521,0.7055,-79.587,59.998,-0.0046
11.266,7.9957,-11.521,0.7055,-79.587,59.998,-0.0043
11.3,7.9957,-11.521,0.7055,-79.587,59.998,-0.0042
11.333,7.9957,-11.52,0.7055,-79.587,59.998,-0.0045
11.366,7.9957,-11.521,0.7055,-79.587,59.998,-0.0042
11.4,7.9957,-11.521,0.7055,-79.587,59.997,-0.0041
11.433,7.9957,-11.521,0.7055,-79.586,59.997,-0.0043
11.466,7.9957,-11.52,0.7055,-79.586,59.997,-0.0041
11.5,7.9957,-11.52,0.7055,-79.586,59.997,-0.004
11.533,7.9957,-11.52,0.7055,-79.586,59.997,-0.0042
11.566,7.9957,-11.52,0.7055,-79.586,59.997,-0.0039
11.6,7.9957,-11.52,0.7055,-79.586,59.996,-0.0039
11.633,7.9957,-11.52,0.7055,-79.586,59.996,-0.0041
11.666,7.9956,-11.52,0.7055,-79.586,59.996,-0.0038
11.7,7.9957,-11.52,0.7055,-79.586,59.996,-0.0038
11.733,7.9956,-11.52,0.7055,-79.586,59.996,-0.004
11.766,7.9956,-11.52,0.7055,-79.586,59.996,-0.0037
11.8,7.9956,-11.52,0.7055,-79.586,59.996,-0.0037
11.833,7.9956,-11.52,0.7055,-79.586,59.996,-0.0039
11.866,7.9956,-11.52,0.7055,-79.586,59.995,-0.0036
11.9,7.9956,-11.52,0.7055,-79.586,59.995,-0.0035
11.933,7.9956,-11.52,0.7055,-79.586,59.995,-0.0037
11.966,7.9956,-11.52,0.7055,-79.586,59.995,-0.0034
12,7.9956,-11.52,0.7055,-79.586,59.995,-0.0034
12.033,7.9956,-11.52,0.7055,-79.586,59.995,-0.0036
12.066,7.9956,-11.52,0.7055,-79.586,59.995,-0.0033
12.1,7.9956,-11.52,0.7055,-79.585,59.995,-0.0033
12.133,7.9956,-11.52,0.7055,-79.586,59.995,-0.0035
12.166,7.9956,-11.52,0.7055,-79.585,59.995,-0.0032
12.2,7.9956,-11.52,0.7055,-79.585,59.994,-0.0031
12.233,7.9956,-11.52,0.7055,-79.585,59.994,-0.0034
12.266,7.9956,-11.52,0.7055,-79.585,59.994,-0.003
12.3,7.9956,-11.52,0.7055,-79.585,59.994,-0.003
12.333,7.9956,-11.52,0.7055,-79.585,59.994,-0.0032
12.366,7.9956,-11.52,0.7055,-79.585,59.994,-0.0029
12.4,7.9956,-11.52,0.7055,-79.585,59.994,-0.0029
12.433,7.9956,-11.52,0.7055,-79.585,59.994,-0.0031
12.466,7.9956,-11.52,0.7055,-79.585,59.993,-0.0028
12.5,7.9956,-11.52,0.7055,-79.585,59.993,-0.0027
12.533,7.9956,-11.52,0.7055,-79.585,59.993,-0.003
12.566,7.9956,-11.52,0.7055,-79.585,59.993,-0.0027
12.6,7.9956,-11.52,0.7055,-79.585,59.993,-0.0026
12.633,7.9956,-11.52,0.7055,-79.585,59.993,-0.0028
12.666,7.9956,-11.52,0.7055,-79.585,59.993,-0.0025
12.7,7.9956,-11.52,0.7055,-79.585,59.993,-0.0025
12.733,7.9956,-11.52,0.7055,-79.585,59.993,-0.0027
12.766,7.9956,-11.52,0.7055,-79.585,59.993,-0.0024
12.8,7.9956,-11.52,0.7055,-79.585,59.993,-0.0024
12.833,7.9956,-11.52,0.7055,-79.585,59.993,-0.0026
12.866,7.9956,-11.52,0.7055,-79.585,59.992,-0.0023
12.9,7.9956,-11.52,0.7055,-79.585,59.992,-0.0022
12.933,7.9956,-11.52,0.7055,-79.585,59.992,-0.0024
12.966,7.9956,-11.519,0.7055,-79.585,59.992,-0.0021
13,7.9956,-11.52,0.7055,-79.585,59.992,-0.002
13.033,7.9956,-11.52,0.7055,-79.585,59.992,-0.0023
13.066,7.9956,-11.52,0.7055,-79.585,59.992,-0.002
13.1,7.9956,-11.52,0.7055,-79.585,59.992,-0.0019
13.133,7.9956,-11.52,0.7055,-79.585,59.992,-0.0022
13.166,7.9956,-11.519,0.7055,-79.585,59.992,-0.0019
13.2,7.9956,-11.519,0.7055,-79.585,59.992,-0.0018
13.233,7.9956,-11.519,0.7055,-79.585,59.992,-0.002
13.266,7.9956,-11.519,0.7055,-79.585,59.992,-0.0017
13.3,7.9956,-11.519,0.7055,-79.585,59.992,-0.0017
13.333,7.9956,-11.519,0.7055,-79.585,59.992,-0.0019
13.366,7.9956,-11.519,0.7055,-79.584,59.992,-0.0016
13.4,7.9956,-11.519,0.7055,-79.584,59.991,-0.0015
